

       Time         hAtm       hRoot     hKode3     hKode1        hSeep     hKode5     hKode6 ... 
      [T]          [L]        [L]        [L]        [L]        [L]        [L]        [L]

       90.0500      -55.2      -34.7         .0         .0         .0         .0      174.7
       90.1133      -55.4      -34.9         .0         .0         .0         .0      174.5
       90.2020      -55.7      -35.2         .0         .0         .0         .0      174.2
       90.3160      -56.1      -35.5         .0         .0         .0         .0      173.9
       90.4528      -56.5      -36.0         .0         .0         .0         .0      173.5
       90.6352      -57.1      -36.5         .0         .0         .0         .0      172.9
       90.8176      -57.7      -37.1         .0         .0         .0         .0      172.4
       91.0000      -58.3      -37.7         .0         .0         .0         .0      171.8
       91.0500      -57.9      -37.8         .0         .0         .0         .0      171.6
       91.1133      -57.9      -37.9         .0         .0         .0         .0      171.5
       91.2020      -58.0      -38.1         .0         .0         .0         .0      171.2
       91.3160      -58.1      -38.3         .0         .0         .0         .0      170.9
       91.4528      -58.4      -38.6         .0         .0         .0         .0      170.6
       91.6352      -58.7      -39.1         .0         .0         .0         .0      170.1
       91.8176      -59.1      -39.5         .0         .0         .0         .0      169.7
       92.0000      -59.5      -39.9         .0         .0         .0         .0      169.3
       92.0500      -59.9      -40.0         .0         .0         .0         .0      169.2
       92.1133      -60.2      -40.1         .0         .0         .0         .0      169.1
       92.2020      -60.5      -40.3         .0         .0         .0         .0      169.0
       92.3160      -60.8      -40.6         .0         .0         .0         .0      168.7
       92.4528      -61.1      -40.9         .0         .0         .0         .0      168.5
       92.6352      -61.6      -41.3         .0         .0         .0         .0      168.1
       92.8176      -62.0      -41.7         .0         .0         .0         .0      167.7
       93.0000      -62.4      -42.1         .0         .0         .0         .0      167.4
       93.3333      -63.9      -43.3         .0         .0         .0         .0      166.4
       93.6667      -65.2      -44.4         .0         .0         .0         .0      165.3
       94.0000      -66.4      -45.6         .0         .0         .0         .0      164.3
       94.5000      -68.9      -47.9         .0         .0         .0         .0      162.3
       95.0000      -71.3      -50.1         .0         .0         .0         .0      160.3
       95.0500      -70.8      -50.2         .0         .0         .0         .0      160.1
       95.1133      -70.5      -50.2         .0         .0         .0         .0      159.9
       95.2020      -70.4      -50.3         .0         .0         .0         .0      159.6
       95.3160      -70.4      -50.5         .0         .0         .0         .0      159.3
       95.4528      -70.5      -50.7         .0         .0         .0         .0      159.0
       95.6352      -70.6      -51.0         .0         .0         .0         .0      158.6
       95.8176      -70.9      -51.3         .0         .0         .0         .0      158.2
       96.0000      -71.1      -51.6         .0         .0         .0         .0      157.9
       96.0500      -69.2      -51.4         .0         .0         .0         .0      157.8
       96.1133      -68.0      -51.1         .0         .0         .0         .0      157.7
       96.2020      -67.0      -50.7         .0         .0         .0         .0      157.7
       96.3160      -66.1      -50.2         .0         .0         .0         .0      157.7
       96.4528      -65.3      -49.7         .0         .0         .0         .0      157.8
       96.6352      -64.5      -49.1         .0         .0         .0         .0      158.0
       96.8176      -63.8      -48.6         .0         .0         .0         .0      158.4
       97.0000      -63.3      -48.1         .0         .0         .0         .0      158.8
       97.0500      -62.1      -47.9         .0         .0         .0         .0      158.9
       97.1133      -61.4      -47.6         .0         .0         .0         .0      159.0
       97.2020      -60.7      -47.2         .0         .0         .0         .0      159.2
       97.3160      -60.1      -46.7         .0         .0         .0         .0      159.5
       97.4528      -59.5      -46.2         .0         .0         .0         .0      159.9
       97.6352      -58.9      -45.4         .0         .0         .0         .0      160.6
       97.8176      -58.3      -44.8         .0         .0         .0         .0      161.3
       98.0000      -57.7      -44.1         .0         .0         .0         .0      162.0
       98.0500      -59.1      -44.1         .0         .0         .0         .0      162.2
       98.1133      -59.9      -44.2         .0         .0         .0         .0      162.4
       98.2020      -60.4      -44.2         .0         .0         .0         .0      162.7
       98.3160      -60.8      -44.2         .0         .0         .0         .0      163.1
       98.4528      -61.1      -44.2         .0         .0         .0         .0      163.4
       98.6352      -61.2      -44.1         .0         .0         .0         .0      163.7
       98.8176      -61.2      -44.0         .0         .0         .0         .0      163.9
       99.0000      -61.1      -43.9         .0         .0         .0         .0      164.1
       99.0500      -60.4      -43.7         .0         .0         .0         .0      164.2
       99.1133      -60.0      -43.6         .0         .0         .0         .0      164.2
       99.2020      -59.7      -43.3         .0         .0         .0         .0      164.4
       99.3160      -59.3      -43.1         .0         .0         .0         .0      164.5
       99.4528      -58.9      -42.8         .0         .0         .0         .0      164.8
       99.6352      -58.5      -42.4         .0         .0         .0         .0      165.1
       99.8176      -58.2      -42.0         .0         .0         .0         .0      165.5
      100.0000      -57.8      -41.6         .0         .0         .0         .0      165.9
      100.3333      -56.8      -40.7         .0         .0         .0         .0      166.8
      100.6667      -55.9      -39.8         .0         .0         .0         .0      167.6
      101.0000      -55.2      -39.0         .0         .0         .0         .0      168.5
      101.0500      -53.9      -38.7         .0         .0         .0         .0      168.7
      101.1133      -53.2      -38.3         .0         .0         .0         .0      168.9
      101.2020      -52.6      -37.8         .0         .0         .0         .0      169.2
      101.3160      -51.9      -37.2         .0         .0         .0         .0      169.7
      101.4528      -51.1      -36.4         .0         .0         .0         .0      170.4
      101.6352      -50.3      -35.5         .0         .0         .0         .0      171.4
      101.8176      -49.5      -34.5         .0         .0         .0         .0      172.5
      102.0000      -48.7      -33.6         .0         .0         .0         .0      173.5
      102.0500      -51.3      -33.8         .0         .0         .0         .0      173.7
      102.1133      -52.7      -34.1         .0         .0         .0         .0      174.0
      102.2020      -53.8      -34.4         .0         .0         .0         .0      174.1
      102.3160      -54.7      -34.8         .0         .0         .0         .0      174.1
      102.4528      -55.4      -35.3         .0         .0         .0         .0      173.8
      102.6352      -56.2      -35.9         .0         .0         .0         .0      173.4
      102.8176      -56.8      -36.4         .0         .0         .0         .0      172.9
      103.0000      -57.4      -37.0         .0         .0         .0         .0      172.4
      103.3333      -58.6      -38.1         .0         .0         .0         .0      171.4
      103.6667      -59.8      -39.2         .0         .0         .0         .0      170.3
      104.0000      -60.9      -40.3         .0         .0         .0         .0      169.3
      104.5000      -62.9      -42.2         .0         .0         .0         .0      167.5
      105.0000      -64.9      -44.1         .0         .0         .0         .0      165.8
      105.5000      -66.7      -45.8         .0         .0         .0         .0      164.1
      106.0000      -68.5      -47.6         .0         .0         .0         .0      162.4
      106.5000      -70.4      -49.4         .0         .0         .0         .0      160.7
      107.0000      -72.3      -51.3         .0         .0         .0         .0      159.0
      107.5000      -74.2      -53.0         .0         .0         .0         .0      157.4
      108.0000      -76.0      -54.8         .0         .0         .0         .0      155.8
      108.5000      -77.9      -56.5         .0         .0         .0         .0      154.2
      109.0000      -79.7      -58.3         .0         .0         .0         .0      152.7
      109.5000      -80.9      -59.5         .0         .0         .0         .0      151.3
      110.0000      -82.1      -60.7         .0         .0         .0         .0      150.0
      110.5000      -83.1      -61.8         .0         .0         .0         .0      148.9
      111.0000      -84.1      -62.8         .0         .0         .0         .0      147.9
      111.5000      -85.6      -64.2         .0         .0         .0         .0      146.8
      112.0000      -87.1      -65.5         .0         .0         .0         .0      145.6
      112.0500      -87.0      -65.6         .0         .0         .0         .0      145.5
      112.1133      -87.0      -65.7         .0         .0         .0         .0      145.4
      112.2020      -87.1      -65.8         .0         .0         .0         .0      145.2
      112.3160      -87.3      -66.0         .0         .0         .0         .0      145.0
      112.4528      -87.5      -66.2         .0         .0         .0         .0      144.7
      112.6352      -87.8      -66.6         .0         .0         .0         .0      144.4
      112.8176      -88.1      -66.9         .0         .0         .0         .0      144.0
      113.0000      -88.4      -67.2         .0         .0         .0         .0      143.7
      113.3333      -89.6      -68.3         .0         .0         .0         .0      143.0
      113.6667      -90.7      -69.3         .0         .0         .0         .0      142.2
      114.0000      -91.8      -70.2         .0         .0         .0         .0      141.4
      114.5000      -93.8      -71.8         .0         .0         .0         .0      140.2
      115.0000      -95.6      -73.4         .0         .0         .0         .0      139.0
      115.0500      -95.4      -73.5         .0         .0         .0         .0      138.9
      115.1133      -95.4      -73.6         .0         .0         .0         .0      138.7
      115.2020      -95.5      -73.8         .0         .0         .0         .0      138.5
      115.3160      -95.7      -74.0         .0         .0         .0         .0      138.2
      115.4528      -95.9      -74.3         .0         .0         .0         .0      137.9
      115.6352      -96.2      -74.6         .0         .0         .0         .0      137.5
      115.8176      -96.5      -75.0         .0         .0         .0         .0      137.2
      116.0000      -96.9      -75.4         .0         .0         .0         .0      136.8
      116.3333      -98.0      -76.0         .0         .0         .0         .0      136.1
      116.6667      -98.8      -76.7         .0         .0         .0         .0      135.5
      117.0000      -99.6      -77.4         .0         .0         .0         .0      134.9
      117.0500      -99.3      -77.5         .0         .0         .0         .0      134.8
      117.1133      -99.2      -77.5         .0         .0         .0         .0      134.6
      117.2020      -99.2      -77.6         .0         .0         .0         .0      134.5
      117.3160      -99.2      -77.7         .0         .0         .0         .0      134.3
      117.4528      -99.2      -77.8         .0         .0         .0         .0      134.1
      117.6352      -99.3      -78.0         .0         .0         .0         .0      133.8
      117.8176      -99.4      -78.2         .0         .0         .0         .0      133.5
      118.0000      -99.6      -78.4         .0         .0         .0         .0      133.2
      118.0500      -96.0      -78.2         .0         .0         .0         .0      133.1
      118.1133      -94.2      -77.8         .0         .0         .0         .0      133.0
      118.2020      -92.5      -77.3         .0         .0         .0         .0      132.9
      118.3160      -91.0      -76.7         .0         .0         .0         .0      132.8
      118.4528      -89.6      -76.0         .0         .0         .0         .0      132.6
      118.6352      -88.2      -75.2         .0         .0         .0         .0      132.5
      118.8176      -87.1      -74.6         .0         .0         .0         .0      132.5
      119.0000      -86.2      -74.0         .0         .0         .0         .0      132.4
      119.3333      -85.5      -73.2         .0         .0         .0         .0      132.6
      119.6667      -84.7      -72.5         .0         .0         .0         .0      132.8
      120.0000      -84.1      -71.9         .0         .0         .0         .0      133.1
      120.0500      -79.8      -71.4         .0         .0         .0         .0      133.1
      120.1133      -77.3      -70.6         .0         .0         .0         .0      133.2
      120.2020      -75.1      -69.6         .0         .0         .0         .0      133.3
      120.3160      -73.4      -68.4         .0         .0         .0         .0      133.5
      120.4528      -71.9      -67.1         .0         .0         .0         .0      133.7
      120.6352      -70.2      -65.5         .0         .0         .0         .0      134.2
      120.8176      -68.9      -64.2         .0         .0         .0         .0      134.9
      121.0000      -67.7      -62.9         .0         .0         .0         .0      135.6
      121.3333      -80.1      -66.0         .0         .0         .0         .0      136.7
      121.6667      -86.0      -68.6         .0         .0         .0         .0      137.2
      122.0000      -89.7      -70.7         .0         .0         .0         .0      137.4
      122.0500      -87.7      -70.7         .0         .0         .0         .0      137.4
      122.1133      -86.9      -70.6         .0         .0         .0         .0      137.4
      122.2020      -86.2      -70.5         .0         .0         .0         .0      137.4
      122.3160      -85.7      -70.4         .0         .0         .0         .0      137.4
      122.4528      -85.3      -70.2         .0         .0         .0         .0      137.4
      122.6352      -84.9      -70.1         .0         .0         .0         .0      137.4
      122.8176      -84.6      -69.9         .0         .0         .0         .0      137.4
      123.0000      -84.4      -69.7         .0         .0         .0         .0      137.4
      123.3333      -85.2      -70.1         .0         .0         .0         .0      137.3
      123.6667      -85.7      -70.5         .0         .0         .0         .0      137.2
      124.0000      -86.1      -70.8         .0         .0         .0         .0      137.1
      124.0500      -79.0      -69.9         .0         .0         .0         .0      137.1
      124.1133      -75.1      -68.7         .0         .0         .0         .0      137.1
      124.2020      -72.1      -67.2         .0         .0         .0         .0      137.1
      124.3160      -69.5      -65.4         .0         .0         .0         .0      137.2
      124.4528      -67.1      -63.5         .0         .0         .0         .0      137.5
      124.6352      -64.6      -61.2         .0         .0         .0         .0      138.1
      124.8176      -62.6      -59.3         .0         .0         .0         .0      138.9
      125.0000      -61.0      -57.6         .0         .0         .0         .0      140.0
      125.0500      -57.8      -56.7         .0         .0         .0         .0      140.3
      125.1133      -56.1      -55.7         .0         .0         .0         .0      140.7
      125.2020      -54.6      -54.4         .0         .0         .0         .0      141.4
      125.3160      -53.1      -52.7         .0         .0         .0         .0      142.4
      125.4528      -51.7      -51.0         .0         .0         .0         .0      143.7
      125.6352      -50.2      -48.8         .0         .0         .0         .0      145.8
      125.8176      -48.9      -46.8         .0         .0         .0         .0      148.3
      126.0000      -47.7      -44.9         .0         .0         .0         .0      151.0
      126.0500      -50.2      -44.9         .0         .0         .0         .0      151.8
      126.1133      -51.4      -44.9         .0         .0         .0         .0      152.8
      126.2020      -52.2      -44.7         .0         .0         .0         .0      154.1
      126.3160      -52.7      -44.5         .0         .0         .0         .0      155.6
      126.4528      -52.9      -44.0         .0         .0         .0         .0      157.3
      126.6352      -52.8      -43.1         .0         .0         .0         .0      159.3
      126.8176      -52.3      -42.1         .0         .0         .0         .0      161.2
      127.0000      -51.7      -40.9         .0         .0         .0         .0      163.1
      127.3333      -60.7      -42.8         .0         .0         .0         .0      164.4
      127.6667      -63.8      -44.1         .0         .0         .0         .0      164.5
      128.0000      -65.6      -45.3         .0         .0         .0         .0      164.1
      128.5000      -68.3      -47.5         .0         .0         .0         .0      162.4
      129.0000      -70.7      -49.6         .0         .0         .0         .0      160.5
      129.5000      -72.8      -51.7         .0         .0         .0         .0      158.7
      130.0000      -74.9      -53.7         .0         .0         .0         .0      156.9
      130.5000      -76.9      -55.5         .0         .0         .0         .0      155.2
      131.0000      -78.8      -57.4         .0         .0         .0         .0      153.6
      131.5000      -81.4      -59.7         .0         .0         .0         .0      151.7
      132.0000      -83.9      -61.9         .0         .0         .0         .0      149.8
      132.5000      -86.7      -64.5         .0         .0         .0         .0      147.8
      133.0000      -89.5      -66.9         .0         .0         .0         .0      145.8
      133.5000      -92.8      -69.9         .0         .0         .0         .0      143.7
      134.0000      -96.1      -72.7         .0         .0         .0         .0      141.6
      134.5000      -99.0      -75.3         .0         .0         .0         .0      139.4
