


                       Node(  9)                     Node( 14)                     Node( 41)                     Node( 45)                     Node( 49)

     time        hNew    theta    Temp         hNew    theta    Temp         hNew    theta    Temp         hNew    theta    Temp         hNew    theta    Temp    
     90.000    135.000   .3390     .000       85.000   .3390     .000      -40.000   .3506     .000      -15.000   .3834     .000       25.000   .3390     .000
     90.050    134.731   .3390     .000       84.774   .3390     .000      -40.181   .3504     .000      -15.134   .3832     .000       24.826   .3390     .000
     90.113    134.548   .3390     .000       84.590   .3390     .000      -40.397   .3501     .000      -15.319   .3829     .000       24.641   .3390     .000
     90.202    134.280   .3390     .000       84.322   .3390     .000      -40.689   .3497     .000      -15.587   .3826     .000       24.373   .3390     .000
     90.316    133.932   .3390     .000       83.974   .3390     .000      -41.057   .3493     .000      -15.936   .3821     .000       24.024   .3390     .000
     90.453    133.517   .3390     .000       83.558   .3390     .000      -41.493   .3488     .000      -16.354   .3816     .000       23.608   .3390     .000
     90.635    132.952   .3390     .000       82.994   .3390     .000      -42.071   .3481     .000      -16.919   .3808     .000       23.043   .3390     .000
     90.818    132.391   .3390     .000       82.431   .3390     .000      -42.648   .3474     .000      -17.483   .3801     .000       22.480   .3390     .000
     91.000    131.838   .3390     .000       81.878   .3390     .000      -43.226   .3467     .000      -18.038   .3793     .000       21.926   .3390     .000
     91.050    131.679   .3390     .000       81.718   .3390     .000      -43.358   .3465     .000      -18.200   .3791     .000       21.765   .3390     .000
     91.113    131.487   .3390     .000       81.526   .3390     .000      -43.492   .3463     .000      -18.392   .3789     .000       21.573   .3390     .000
     91.202    131.235   .3390     .000       81.274   .3390     .000      -43.668   .3461     .000      -18.643   .3785     .000       21.321   .3390     .000
     91.316    130.936   .3390     .000       80.975   .3390     .000      -43.901   .3458     .000      -18.942   .3782     .000       21.021   .3390     .000
     91.453    130.598   .3390     .000       80.637   .3390     .000      -44.193   .3455     .000      -19.280   .3777     .000       20.683   .3390     .000
     91.635    130.178   .3390     .000       80.216   .3390     .000      -44.591   .3450     .000      -19.702   .3771     .000       20.261   .3390     .000
     91.818    129.759   .3390     .000       79.796   .3390     .000      -44.998   .3445     .000      -20.122   .3766     .000       19.841   .3390     .000
     92.000    129.355   .3390     .000       79.393   .3390     .000      -45.405   .3440     .000      -20.528   .3760     .000       19.437   .3390     .000
     92.050    129.258   .3390     .000       79.294   .3390     .000      -45.492   .3439     .000      -20.625   .3759     .000       19.338   .3390     .000
     92.113    129.144   .3390     .000       79.181   .3390     .000      -45.634   .3437     .000      -20.738   .3757     .000       19.225   .3390     .000
     92.202    128.982   .3390     .000       79.019   .3390     .000      -45.845   .3435     .000      -20.901   .3755     .000       19.063   .3390     .000
     92.316    128.765   .3390     .000       78.801   .3390     .000      -46.113   .3431     .000      -21.120   .3752     .000       18.845   .3390     .000
     92.453    128.493   .3390     .000       78.529   .3390     .000      -46.426   .3427     .000      -21.394   .3749     .000       18.572   .3390     .000
     92.635    128.121   .3390     .000       78.157   .3390     .000      -46.831   .3423     .000      -21.767   .3744     .000       18.200   .3390     .000
     92.818    127.756   .3390     .000       77.792   .3390     .000      -47.225   .3418     .000      -22.135   .3738     .000       17.835   .3390     .000
     93.000    127.381   .3390     .000       77.416   .3390     .000      -47.620   .3413     .000      -22.512   .3733     .000       17.458   .3390     .000
     93.333    126.405   .3390     .000       76.440   .3390     .000      -48.891   .3399     .000      -23.502   .3720     .000       16.482   .3390     .000
     93.667    125.358   .3390     .000       75.392   .3390     .000      -50.086   .3386     .000      -24.559   .3706     .000       15.433   .3390     .000
     94.000    124.315   .3390     .000       74.348   .3390     .000      -51.235   .3373     .000      -25.612   .3692     .000       14.387   .3390     .000
     94.500    122.317   .3390     .000       72.349   .3390     .000      -53.658   .3346     .000      -27.638   .3665     .000       12.388   .3390     .000
     95.000    120.277   .3390     .000       70.308   .3390     .000      -55.973   .3320     .000      -29.701   .3637     .000       10.344   .3390     .000
     95.050    120.103   .3390     .000       70.132   .3390     .000      -56.032   .3319     .000      -29.875   .3635     .000       10.167   .3390     .000
     95.113    119.889   .3390     .000       69.917   .3390     .000      -56.084   .3319     .000      -30.083   .3632     .000        9.952   .3390     .000
     95.202    119.625   .3390     .000       69.654   .3390     .000      -56.152   .3318     .000      -30.342   .3629     .000        9.688   .3390     .000
     95.316    119.320   .3390     .000       69.349   .3390     .000      -56.263   .3317     .000      -30.641   .3625     .000        9.383   .3390     .000
     95.453    118.993   .3390     .000       69.022   .3390     .000      -56.430   .3315     .000      -30.963   .3621     .000        9.055   .3390     .000
     95.635    118.600   .3390     .000       68.628   .3390     .000      -56.694   .3312     .000      -31.353   .3616     .000        8.662   .3390     .000
     95.818    118.234   .3390     .000       68.262   .3390     .000      -56.983   .3309     .000      -31.717   .3611     .000        8.295   .3390     .000
     96.000    117.893   .3390     .000       67.920   .3390     .000      -57.287   .3305     .000      -32.059   .3607     .000        7.953   .3390     .000
     96.050    117.813   .3390     .000       67.840   .3390     .000      -57.112   .3307     .000      -32.126   .3606     .000        7.872   .3390     .000
     96.113    117.740   .3390     .000       67.767   .3390     .000      -56.771   .3311     .000      -32.183   .3605     .000        7.800   .3390     .000
     96.202    117.688   .3390     .000       67.715   .3390     .000      -56.250   .3317     .000      -32.212   .3605     .000        7.748   .3390     .000
     96.316    117.699   .3390     .000       67.726   .3390     .000      -55.642   .3324     .000      -32.174   .3605     .000        7.758   .3390     .000
     96.453    117.804   .3390     .000       67.830   .3390     .000      -55.019   .3331     .000      -32.041   .3607     .000        7.863   .3390     .000
     96.635    118.060   .3390     .000       68.087   .3390     .000      -54.329   .3338     .000      -31.760   .3611     .000        8.119   .3390     .000
     96.818    118.401   .3390     .000       68.428   .3390     .000      -53.738   .3345     .000      -31.405   .3615     .000        8.460   .3390     .000
     97.000    118.792   .3390     .000       68.820   .3390     .000      -53.215   .3351     .000      -31.006   .3620     .000        8.853   .3390     .000
     97.050    118.886   .3390     .000       68.914   .3390     .000      -53.051   .3352     .000      -30.916   .3622     .000        8.947   .3390     .000
     97.113    119.022   .3390     .000       69.050   .3390     .000      -52.756   .3356     .000      -30.780   .3623     .000        9.083   .3390     .000
     97.202    119.232   .3390     .000       69.260   .3390     .000      -52.302   .3361     .000      -30.564   .3626     .000        9.293   .3390     .000
     97.316    119.542   .3390     .000       69.570   .3390     .000      -51.744   .3367     .000      -30.245   .3630     .000        9.604   .3390     .000
     97.453    119.971   .3390     .000       70.000   .3390     .000      -51.127   .3374     .000      -29.810   .3636     .000       10.033   .3390     .000
     97.635    120.607   .3390     .000       70.636   .3390     .000      -50.394   .3382     .000      -29.171   .3644     .000       10.670   .3390     .000
     97.818    121.305   .3390     .000       71.334   .3390     .000      -49.688   .3390     .000      -28.474   .3654     .000       11.369   .3390     .000
     98.000    122.022   .3390     .000       72.051   .3390     .000      -49.019   .3398     .000      -27.759   .3663     .000       12.087   .3390     .000
     98.050    122.204   .3390     .000       72.234   .3390     .000      -48.950   .3398     .000      -27.573   .3666     .000       12.270   .3390     .000
     98.113    122.456   .3390     .000       72.486   .3390     .000      -49.020   .3398     .000      -27.327   .3669     .000       12.523   .3390     .000
     98.202    122.771   .3390     .000       72.801   .3390     .000      -49.159   .3396     .000      -27.027   .3673     .000       12.838   .3390     .000
     98.316    123.092   .3390     .000       73.123   .3390     .000      -49.286   .3395     .000      -26.723   .3677     .000       13.160   .3390     .000
     98.453    123.387   .3390     .000       73.418   .3390     .000      -49.352   .3394     .000      -26.442   .3681     .000       13.456   .3390     .000
     98.635    123.684   .3390     .000       73.715   .3390     .000      -49.339   .3394     .000      -26.157   .3685     .000       13.752   .3390     .000
     98.818    123.922   .3390     .000       73.953   .3390     .000      -49.264   .3395     .000      -25.926   .3688     .000       13.991   .3390     .000
     99.000    124.128   .3390     .000       74.160   .3390     .000      -49.153   .3396     .000      -25.723   .3691     .000       14.198   .3390     .000
     99.050    124.185   .3390     .000       74.217   .3390     .000      -49.062   .3397     .000      -25.667   .3691     .000       14.255   .3390     .000
     99.113    124.260   .3390     .000       74.292   .3390     .000      -48.897   .3399     .000      -25.590   .3692     .000       14.330   .3390     .000
     99.202    124.381   .3390     .000       74.413   .3390     .000      -48.647   .3402     .000      -25.466   .3694     .000       14.451   .3390     .000
     99.316    124.562   .3390     .000       74.594   .3390     .000      -48.341   .3405     .000      -25.281   .3696     .000       14.633   .3390     .000
     99.453    124.810   .3390     .000       74.842   .3390     .000      -48.001   .3409     .000      -25.029   .3700     .000       14.881   .3390     .000
     99.635    125.176   .3390     .000       75.209   .3390     .000      -47.582   .3413     .000      -24.661   .3705     .000       15.248   .3390     .000
     99.818    125.568   .3390     .000       75.601   .3390     .000      -47.185   .3418     .000      -24.269   .3710     .000       15.641   .3390     .000
    100.000    125.965   .3390     .000       75.998   .3390     .000      -46.797   .3423     .000      -23.872   .3715     .000       16.038   .3390     .000
    100.333    126.781   .3390     .000       76.814   .3390     .000      -45.917   .3434     .000      -23.056   .3726     .000       16.855   .3390     .000
    100.667    127.645   .3390     .000       77.680   .3390     .000      -45.051   .3444     .000      -22.191   .3738     .000       17.721   .3390     .000
    101.000    128.562   .3390     .000       78.597   .3390     .000      -44.197   .3455     .000      -21.277   .3750     .000       18.639   .3390     .000
    101.050    128.684   .3390     .000       78.720   .3390     .000      -43.945   .3458     .000      -21.153   .3752     .000       18.763   .3390     .000
    101.113    128.898   .3390     .000       78.934   .3390     .000      -43.564   .3462     .000      -20.938   .3755     .000       18.977   .3390     .000
    101.202    129.245   .3390     .000       79.281   .3390     .000      -43.014   .3469     .000      -20.588   .3759     .000       19.325   .3390     .000
    101.316    129.764   .3390     .000       79.801   .3390     .000      -42.341   .3477     .000      -20.067   .3766     .000       19.845   .3390     .000
    101.453    130.468   .3390     .000       80.505   .3390     .000      -41.581   .3487     .000      -19.367   .3775     .000       20.549   .3390     .000
    101.635    131.479   .3390     .000       81.517   .3390     .000      -40.622   .3498     .000      -18.358   .3789     .000       21.562   .3390     .000
    101.818    132.505   .3390     .000       82.544   .3390     .000      -39.674   .3510     .000      -17.330   .3802     .000       22.591   .3390     .000
    102.000    133.568   .3390     .000       83.608   .3390     .000      -38.727   .3521     .000      -16.270   .3816     .000       23.656   .3390     .000
    102.050    133.781   .3390     .000       83.822   .3390     .000      -38.852   .3520     .000      -16.057   .3820     .000       23.871   .3390     .000
    102.113    134.010   .3390     .000       84.051   .3390     .000      -39.207   .3516     .000      -15.835   .3823     .000       24.101   .3390     .000
    102.202    134.144   .3390     .000       84.185   .3390     .000      -39.703   .3510     .000      -15.710   .3824     .000       24.235   .3390     .000
    102.316    134.096   .3390     .000       84.137   .3390     .000      -40.235   .3503     .000      -15.764   .3824     .000       24.187   .3390     .000
    102.453    133.873   .3390     .000       83.915   .3390     .000      -40.764   .3497     .000      -15.991   .3821     .000       23.965   .3390     .000
    102.635    133.442   .3390     .000       83.484   .3390     .000      -41.381   .3489     .000      -16.425   .3815     .000       23.534   .3390     .000
    102.818    132.951   .3390     .000       82.992   .3390     .000      -41.959   .3482     .000      -16.919   .3808     .000       23.041   .3390     .000
    103.000    132.437   .3390     .000       82.477   .3390     .000      -42.517   .3475     .000      -17.435   .3801     .000       22.526   .3390     .000
    103.333    131.414   .3390     .000       81.454   .3390     .000      -43.643   .3462     .000      -18.462   .3788     .000       21.502   .3390     .000
    103.667    130.368   .3390     .000       80.406   .3390     .000      -44.740   .3448     .000      -19.513   .3774     .000       20.453   .3390     .000
    104.000    129.339   .3390     .000       79.377   .3390     .000      -45.818   .3435     .000      -20.546   .3760     .000       19.422   .3390     .000
    104.500    127.543   .3390     .000       77.580   .3390     .000      -47.834   .3411     .000      -22.357   .3736     .000       17.624   .3390     .000
    105.000    125.783   .3390     .000       75.818   .3390     .000      -49.761   .3389     .000      -24.134   .3712     .000       15.860   .3390     .000
    105.500    124.105   .3390     .000       74.138   .3390     .000      -51.537   .3369     .000      -25.824   .3689     .000       14.178   .3390     .000
    106.000    122.467   .3390     .000       72.499   .3390     .000      -53.287   .3350     .000      -27.474   .3667     .000       12.537   .3390     .000
    106.500    120.736   .3390     .000       70.767   .3390     .000      -55.206   .3329     .000      -29.223   .3643     .000       10.803   .3390     .000
    107.000    119.029   .3390     .000       69.058   .3390     .000      -57.072   .3308     .000      -30.948   .3621     .000        9.093   .3390     .000
    107.500    117.410   .3390     .000       67.438   .3390     .000      -58.887   .3287     .000      -32.594   .3600     .000        7.471   .3390     .000
    108.000    115.828   .3390     .000       65.855   .3390     .000      -60.659   .3269     .000      -34.199   .3579     .000        5.887   .3390     .000
    108.500    114.247   .3390     .000       64.272   .3390     .000      -62.497   .3251     .000      -35.807   .3558     .000        4.303   .3390     .000
    109.000    112.676   .3390     .000       62.700   .3390     .000      -64.289   .3233     .000      -37.403   .3538     .000        2.730   .3390     .000
    109.500    111.314   .3390     .000       61.337   .3390     .000      -65.460   .3222     .000      -38.756   .3521     .000        1.365   .3390     .000
    110.000    110.037   .3390     .000       60.060   .3390     .000      -66.717   .3209     .000      -40.039   .3505     .000         .087   .3390     .000
    110.500    108.942   .3390     .000       58.964   .3390     .000      -67.683   .3199     .000      -41.129   .3492     .000       -1.009   .3389     .000
    111.000    107.928   .3390     .000       57.949   .3390     .000      -68.718   .3189     .000      -42.154   .3479     .000       -2.025   .3386     .000
    111.500    106.808   .3390     .000       56.829   .3390     .000      -70.172   .3175     .000      -43.316   .3465     .000       -3.146   .3381     .000
    112.000    105.655   .3390     .000       55.675   .3390     .000      -71.569   .3161     .000      -44.498   .3451     .000       -4.300   .3376     .000
    112.050    105.519   .3390     .000       55.539   .3390     .000      -71.608   .3161     .000      -44.624   .3449     .000       -4.437   .3375     .000
    112.113    105.388   .3390     .000       55.407   .3390     .000      -71.706   .3160     .000      -44.754   .3448     .000       -4.569   .3375     .000
    112.202    105.210   .3390     .000       55.229   .3390     .000      -71.842   .3158     .000      -44.931   .3446     .000       -4.747   .3374     .000
    112.316    104.988   .3390     .000       55.007   .3390     .000      -72.022   .3157     .000      -45.153   .3443     .000       -4.969   .3372     .000
    112.453    104.725   .3390     .000       54.744   .3390     .000      -72.245   .3154     .000      -45.415   .3440     .000       -5.232   .3371     .000
    112.635    104.380   .3390     .000       54.399   .3390     .000      -72.555   .3151     .000      -45.758   .3436     .000       -5.578   .3369     .000
    112.818    104.040   .3390     .000       54.059   .3390     .000      -72.872   .3148     .000      -46.098   .3431     .000       -5.917   .3367     .000
    113.000    103.711   .3390     .000       53.729   .3390     .000      -73.198   .3145     .000      -46.430   .3427     .000       -6.247   .3365     .000
    113.333    103.007   .3390     .000       53.026   .3390     .000      -74.369   .3134     .000      -47.190   .3418     .000       -6.951   .3360     .000
    113.667    102.243   .3390     .000       52.261   .3390     .000      -75.436   .3123     .000      -47.992   .3409     .000       -7.716   .3355     .000
    114.000    101.457   .3390     .000       51.475   .3390     .000      -76.477   .3114     .000      -48.807   .3400     .000       -8.503   .3349     .000
    114.500    100.220   .3390     .000       50.237   .3390     .000      -78.201   .3100     .000      -50.099   .3385     .000       -9.741   .3339     .000
    115.000     98.985   .3390     .000       49.002   .3390     .000      -79.820   .3086     .000      -51.383   .3371     .000      -10.977   .3329     .000
    115.050     98.868   .3390     .000       48.884   .3390     .000      -79.924   .3085     .000      -51.504   .3370     .000      -11.096   .3328     .000
