

       Time         hAtm       hRoot     hKode3     hKode1      hSeep     hKode5     hKode6 ... 
       [T]          [L]         [L]        [L]        [L]        [L]        [L]        [L]

         .0010      -99.0         .0         .0         .0         .0         .0         .0
         .0020      -98.0         .0         .0         .0         .0         .0         .0
         .0033      -96.7         .0         .0         .0         .0         .0         .0
         .0050      -95.1         .0         .0         .0         .0         .0         .0
         .0072      -93.0         .0         .0         .0         .0         .0         .0
         .0101      -90.5         .0         .0         .0         .0         .0         .0
         .0139      -87.4         .0         .0         .0         .0         .0         .0
         .0186      -83.5         .0         .0         .0         .0         .0         .0
         .0249      -79.0         .0         .0         .0         .0         .0         .0
         .0332      -73.8         .0         .0         .0         .0         .0         .0
         .0444      -67.9         .0         .0         .0         .0         .0         .0
         .0583      -61.9         .0         .0         .0         .0         .0         .0
         .0791      -55.3         .0         .0         .0         .0         .0         .0
         .1000      -50.6         .0         .0         .0         .0         .0         .0
         .1233      -56.1         .0         .0         .0         .0         .0         .0
         .1536      -61.3         .0         .0         .0         .0         .0         .0
         .1930      -66.3         .0         .0         .0         .0         .0         .0
         .2441      -70.5         .0         .0         .0         .0         .0         .0
         .3104      -74.3         .0         .0         .0         .0         .0         .0
         .3969      -77.3         .0         .0         .0         .0         .0         .0
         .5099      -79.8         .0         .0         .0         .0         .0         .0
         .6559      -82.1         .0         .0         .0         .0         .0         .0
         .8466      -84.2         .0         .0         .0         .0         .0         .0
        1.0940      -86.0         .0         .0         .0         .0         .0         .0
        1.4121      -87.6         .0         .0         .0         .0         .0         .0
        1.8210      -89.1         .0         .0         .0         .0         .0         .0
        2.3663      -90.4         .0         .0         .0         .0         .0         .0
        3.0603      -91.6         .0         .0         .0         .0         .0         .0
        3.9277      -92.7         .0         .0         .0         .0         .0         .0
        5.1422      -93.7         .0         .0         .0         .0         .0         .0
        6.7615      -94.6         .0         .0         .0         .0         .0         .0
        8.3807      -95.3         .0         .0         .0         .0         .0         .0
       10.0000      -95.9         .0         .0         .0         .0         .0         .0
       12.8750      -96.6         .0         .0         .0         .0         .0         .0
       15.7500      -97.1         .0         .0         .0         .0         .0         .0
       18.6250      -97.6         .0         .0         .0         .0         .0         .0
       21.5000      -97.9         .0         .0         .0         .0         .0         .0
       21.5010      -95.2         .0         .0         .0         .0         .0         .0
       21.5023      -91.7         .0         .0         .0         .0         .0         .0
       21.5040      -87.7         .0         .0         .0         .0         .0         .0
       21.5062      -82.4         .0         .0         .0         .0         .0         .0
       21.5090      -76.4         .0         .0         .0         .0         .0         .0
       21.5128      -69.4         .0         .0         .0         .0         .0         .0
       21.5176      -61.5         .0         .0         .0         .0         .0         .0
       21.5239      -53.3         .0         .0         .0         .0         .0         .0
       21.5321      -45.0         .0         .0         .0         .0         .0         .0
       21.5403      -38.9         .0         .0         .0         .0         .0         .0
       21.5485      -34.5         .0         .0         .0         .0         .0         .0
       21.5567      -31.2         .0         .0         .0         .0         .0         .0
       21.5649      -28.7         .0         .0         .0         .0         .0         .0
       21.5731      -26.7         .0         .0         .0         .0         .0         .0
       21.5813      -25.1         .0         .0         .0         .0         .0         .0
       21.5895      -23.8         .0         .0         .0         .0         .0         .0
       21.5977      -22.6         .0         .0         .0         .0         .0         .0
       21.6059      -21.6         .0         .0         .0         .0         .0         .0
       21.6142      -20.6         .0         .0         .0         .0         .0         .0
       21.6224      -19.7         .0         .0         .0         .0         .0         .0
       21.6306      -18.9         .0         .0         .0         .0         .0         .0
       21.6388      -18.1         .0         .0         .0         .0         .0         .0
       21.6470      -17.3         .0         .0         .0         .0         .0         .0
       21.6577      -16.5         .0         .0         .0         .0         .0         .0
       21.6684      -15.6         .0         .0         .0         .0         .0         .0
       21.6791      -14.9         .0         .0         .0         .0         .0         .0
       21.6898      -14.2         .0         .0         .0         .0         .0         .0
       21.7005      -13.6         .0         .0         .0         .0         .0         .0
       21.7112      -13.0         .0         .0         .0         .0         .0         .0
       21.7219      -12.5         .0         .0         .0         .0         .0         .0
       21.7326      -12.0         .0         .0         .0         .0         .0         .0
       21.7433      -11.6         .0         .0         .0         .0         .0         .0
       21.7568      -11.1         .0         .0         .0         .0         .0         .0
       21.7703      -10.7         .0         .0         .0         .0         .0         .0
       21.7838      -10.3         .0         .0         .0         .0         .0         .0
       21.7973       -9.9         .0         .0         .0         .0         .0         .0
       21.8108       -9.5         .0         .0         .0         .0         .0         .0
       21.8243       -9.2         .0         .0         .0         .0         .0         .0
       21.8378       -8.9         .0         .0         .0         .0         .0         .0
       21.8514       -8.6         .0         .0         .0         .0         .0         .0
       21.8649       -8.4         .0         .0         .0         .0         .0         .0
       21.8784       -8.1         .0         .0         .0         .0         .0         .0
       21.8919       -7.9         .0         .0         .0         .0         .0         .0
       21.9099       -7.6         .0         .0         .0         .0         .0         .0
       21.9279       -7.3         .0         .0         .0         .0         .0         .0
       21.9459       -7.0         .0         .0         .0         .0         .0         .0
       21.9640       -6.8         .0         .0         .0         .0         .0         .0
       21.9820       -6.5         .0         .0         .0         .0         .0         .0
       22.0000       -6.3         .0         .0         .0         .0         .0         .0
       22.0179       -6.2         .0         .0         .0         .0         .0         .0
       22.0357       -6.0         .0         .0         .0         .0         .0         .0
       22.0536       -5.8         .0         .0         .0         .0         .0         .0
       22.0714       -5.7         .0         .0         .0         .0         .0         .0
       22.0952       -5.5         .0         .0         .0         .0         .0         .0
       22.1190       -5.4         .0         .0         .0         .0         .0         .0
       22.1429       -5.2         .0         .0         .0         .0         .0         .0
       22.1667       -5.1         .0         .0         .0         .0         .0         .0
       22.1905       -5.0         .0         .0         .0         .0         .0         .0
       22.2143       -4.8         .0         .0         .0         .0         .0         .0
       22.2381       -4.7         .0         .0         .0         .0         .0         .0
       22.2619       -4.6         .0         .0         .0         .0         .0         .0
       22.2857       -4.6         .0         .0         .0         .0         .0         .0
       22.3095       -4.5         .0         .0         .0         .0         .0         .0
       22.3333       -4.4         .0         .0         .0         .0         .0         .0
       22.3571       -4.3         .0         .0         .0         .0         .0         .0
       22.3809       -4.3         .0         .0         .0         .0         .0         .0
       22.4048       -4.2         .0         .0         .0         .0         .0         .0
       22.4286       -4.1         .0         .0         .0         .0         .0         .0
       22.4643       -4.1         .0         .0         .0         .0         .0         .0
       22.5000       -4.0         .0         .0         .0         .0         .0         .0
       22.5010       -4.4         .0         .0         .0         .0         .0         .0
       22.5023       -4.8         .0         .0         .0         .0         .0         .0
       22.5040       -5.3         .0         .0         .0         .0         .0         .0
       22.5062       -5.7         .0         .0         .0         .0         .0         .0
       22.5090       -6.1         .0         .0         .0         .0         .0         .0
       22.5128       -6.6         .0         .0         .0         .0         .0         .0
       22.5176       -7.0         .0         .0         .0         .0         .0         .0
       22.5238       -7.5         .0         .0         .0         .0         .0         .0
       22.5320       -8.0         .0         .0         .0         .0         .0         .0
       22.5426       -8.5         .0         .0         .0         .0         .0         .0
       22.5565       -9.0         .0         .0         .0         .0         .0         .0
       22.5743       -9.5         .0         .0         .0         .0         .0         .0
       22.5974      -10.1         .0         .0         .0         .0         .0         .0
       22.6275      -10.6         .0         .0         .0         .0         .0         .0
       22.6672      -11.2         .0         .0         .0         .0         .0         .0
       22.7192      -11.8         .0         .0         .0         .0         .0         .0
       22.7843      -12.4         .0         .0         .0         .0         .0         .0
       22.8738      -12.9         .0         .0         .0         .0         .0         .0
       22.9632      -13.3         .0         .0         .0         .0         .0         .0
       23.0706      -13.7         .0         .0         .0         .0         .0         .0
       23.2137      -14.0         .0         .0         .0         .0         .0         .0
       23.3569      -14.2         .0         .0         .0         .0         .0         .0
       23.5000      -14.4         .0         .0         .0         .0         .0         .0
       23.5010      -13.6         .0         .0         .0         .0         .0         .0
       23.5023      -12.6         .0         .0         .0         .0         .0         .0
       23.5040      -11.5         .0         .0         .0         .0         .0         .0
       23.5062      -10.4         .0         .0         .0         .0         .0         .0
       23.5090       -9.2         .0         .0         .0         .0         .0         .0
       23.5128       -8.1         .0         .0         .0         .0         .0         .0
       23.5176       -7.1         .0         .0         .0         .0         .0         .0
       23.5239       -6.3         .0         .0         .0         .0         .0         .0
       23.5301       -5.7         .0         .0         .0         .0         .0         .0
       23.5364       -5.2         .0         .0         .0         .0         .0         .0
       23.5445       -4.7         .0         .0         .0         .0         .0         .0
       23.5526       -4.3         .0         .0         .0         .0         .0         .0
       23.5608       -4.0         .0         .0         .0         .0         .0         .0
       23.5689       -3.7         .0         .0         .0         .0         .0         .0
       23.5770       -3.5         .0         .0         .0         .0         .0         .0
       23.5852       -3.3         .0         .0         .0         .0         .0         .0
       23.5958       -3.1         .0         .0         .0         .0         .0         .0
       23.6065       -3.0         .0         .0         .0         .0         .0         .0
       23.6171       -2.8         .0         .0         .0         .0         .0         .0
       23.6277       -2.7         .0         .0         .0         .0         .0         .0
       23.6384       -2.6         .0         .0         .0         .0         .0         .0
       23.6490       -2.6         .0         .0         .0         .0         .0         .0
       23.6630       -2.5         .0         .0         .0         .0         .0         .0
       23.6771       -2.5         .0         .0         .0         .0         .0         .0
       23.6911       -2.4         .0         .0         .0         .0         .0         .0
       23.7052       -2.4         .0         .0         .0         .0         .0         .0
       23.7192       -2.4         .0         .0         .0         .0         .0         .0
       23.7332       -2.3         .0         .0         .0         .0         .0         .0
       23.7473       -2.3         .0         .0         .0         .0         .0         .0
       23.7653       -2.3         .0         .0         .0         .0         .0         .0
       23.7834       -2.3         .0         .0         .0         .0         .0         .0
       23.8014       -2.3         .0         .0         .0         .0         .0         .0
       23.8195       -2.3         .0         .0         .0         .0         .0         .0
       23.8375       -2.3         .0         .0         .0         .0         .0         .0
       23.8556       -2.3         .0         .0         .0         .0         .0         .0
       23.8797       -2.3         .0         .0         .0         .0         .0         .0
       23.9037       -2.3         .0         .0         .0         .0         .0         .0
       23.9278       -2.3         .0         .0         .0         .0         .0         .0
       23.9519       -2.3         .0         .0         .0         .0         .0         .0
       23.9759       -2.3         .0         .0         .0         .0         .0         .0
       24.0000       -2.3         .0         .0         .0         .0         .0         .0
       24.0238       -2.3         .0         .0         .0         .0         .0         .0
       24.0476       -2.2         .0         .0         .0         .0         .0         .0
       24.0778       -2.3         .0         .0         .0         .0         .0         .0
       24.1079       -2.3         .0         .0         .0         .0         .0         .0
       24.1381       -2.3         .0         .0         .0         .0         .0         .0
       24.1683       -2.3         .0         .0         .0         .0         .0         .0
       24.1984       -2.3         .0         .0         .0         .0         .0         .0
       24.2286       -2.2         .0         .0         .0         .0         .0         .0
       24.2673       -2.3         .0         .0         .0         .0         .0         .0
       24.3061       -2.3         .0         .0         .0         .0         .0         .0
       24.3449       -2.3         .0         .0         .0         .0         .0         .0
       24.3837       -2.3         .0         .0         .0         .0         .0         .0
       24.4224       -2.3         .0         .0         .0         .0         .0         .0
       24.4612       -2.3         .0         .0         .0         .0         .0         .0
       24.4806       -2.3         .0         .0         .0         .0         .0         .0
       24.5000       -2.3         .0         .0         .0         .0         .0         .0
       24.5007       -2.6         .0         .0         .0         .0         .0         .0
       24.5016       -2.9         .0         .0         .0         .0         .0         .0
       24.5028       -3.3         .0         .0         .0         .0         .0         .0
       24.5043       -3.6         .0         .0         .0         .0         .0         .0
       24.5063       -3.9         .0         .0         .0         .0         .0         .0
       24.5089       -4.2         .0         .0         .0         .0         .0         .0
       24.5123       -4.5         .0         .0         .0         .0         .0         .0
       24.5167       -4.8         .0         .0         .0         .0         .0         .0
       24.5211       -5.0         .0         .0         .0         .0         .0         .0
       24.5255       -5.2         .0         .0         .0         .0         .0         .0
       24.5299       -5.3         .0         .0         .0         .0         .0         .0
       24.5343       -5.5         .0         .0         .0         .0         .0         .0
       24.5386       -5.6         .0         .0         .0         .0         .0         .0
       24.5430       -5.7         .0         .0         .0         .0         .0         .0
       24.5474       -5.8         .0         .0         .0         .0         .0         .0
       24.5518       -5.9         .0         .0         .0         .0         .0         .0
       24.5562       -6.0         .0         .0         .0         .0         .0         .0
       24.5593       -6.0         .0         .0         .0         .0         .0         .0
       24.5624       -6.1         .0         .0         .0         .0         .0         .0
       24.5654       -6.1         .0         .0         .0         .0         .0         .0
       24.5685       -6.2         .0         .0         .0         .0         .0         .0
       24.5725       -6.2         .0         .0         .0         .0         .0         .0
       24.5765       -6.3         .0         .0         .0         .0         .0         .0
       24.5817       -6.4         .0         .0         .0         .0         .0         .0
       24.5869       -6.4         .0         .0         .0         .0         .0         .0
