 All solute fluxes (SMean) and cumulative solute fluxes (ChemS) are positive out of the region

     Time     CumCh0     CumCh1     CumChR     CumChN   --------------------  ChemS(i),i=1,NumKD  ----------------------  ---------------------  SMean(j),j=1,NumKD ----------------------
      [T]    [VM/L3]    [VM/L3]    [VM/L3]    [VM/L3]                               [VM/L3]                                                           [VM/T/L3]

       .10  -.504E-09   .000E+00   .000E+00   .000E+00   .000E+00   .000E+00   .000E+00   .000E+00   .000E+00   .000E+00   .000E+00   .000E+00   .000E+00   .000E+00   .000E+00   .000E+00
       .20  -.306E-08   .160E-15   .000E+00   .000E+00   .193E-13   .000E+00   .000E+00   .000E+00   .000E+00   .000E+00   .193E-12   .000E+00   .000E+00   .000E+00   .000E+00   .000E+00
       .30  -.973E-08   .117E-14   .000E+00   .000E+00   .136E-12   .000E+00   .000E+00   .000E+00   .000E+00   .000E+00   .117E-11   .000E+00   .000E+00   .000E+00   .000E+00   .000E+00
       .40  -.224E-07   .445E-14   .000E+00   .000E+00   .508E-12   .000E+00   .000E+00   .000E+00   .000E+00   .000E+00   .372E-11   .000E+00   .000E+00   .000E+00   .000E+00   .000E+00
       .53  -.518E-07   .147E-13   .000E+00   .000E+00   .166E-11   .000E+00   .000E+00   .000E+00   .000E+00   .000E+00   .865E-11   .000E+00   .000E+00   .000E+00   .000E+00   .000E+00
       .67  -.986E-07   .390E-13   .000E+00   .000E+00   .435E-11   .000E+00   .000E+00   .000E+00   .000E+00   .000E+00   .202E-10   .000E+00   .000E+00   .000E+00   .000E+00   .000E+00
       .80  -.166E-06   .858E-13   .000E+00   .000E+00   .954E-11   .000E+00   .000E+00   .000E+00   .000E+00   .000E+00   .390E-10   .000E+00   .000E+00   .000E+00   .000E+00   .000E+00
       .93  -.257E-06   .165E-12   .000E+00   .000E+00   .184E-10   .000E+00   .000E+00   .000E+00   .000E+00   .000E+00   .666E-10   .000E+00   .000E+00   .000E+00   .000E+00   .000E+00
      1.06  -.374E-06   .290E-12   .000E+00   .000E+00   .323E-10   .000E+00   .000E+00   .000E+00   .000E+00   .000E+00   .104E-09   .000E+00   .000E+00   .000E+00   .000E+00   .000E+00
      1.20  -.520E-06   .473E-12   .000E+00   .000E+00   .528E-10   .000E+00   .000E+00   .000E+00   .000E+00   .000E+00   .154E-09   .000E+00   .000E+00   .000E+00   .000E+00   .000E+00
      1.33  -.697E-06   .728E-12   .000E+00   .000E+00   .816E-10   .000E+00   .000E+00   .000E+00   .000E+00   .000E+00   .217E-09   .000E+00   .000E+00   .000E+00   .000E+00   .000E+00
      1.46  -.906E-06   .107E-11   .000E+00   .000E+00   .121E-09   .000E+00   .000E+00   .000E+00   .000E+00   .000E+00   .294E-09   .000E+00   .000E+00   .000E+00   .000E+00   .000E+00
      1.64  -.124E-05   .167E-11   .000E+00   .000E+00   .189E-09   .000E+00   .000E+00   .000E+00   .000E+00   .000E+00   .387E-09   .000E+00   .000E+00   .000E+00   .000E+00   .000E+00
      1.88  -.179E-05   .277E-11   .000E+00   .000E+00   .316E-09   .000E+00   .000E+00   .000E+00   .000E+00   .000E+00   .539E-09   .000E+00   .000E+00   .000E+00   .000E+00   .000E+00
      2.11  -.246E-05   .436E-11   .000E+00   .000E+00   .502E-09   .000E+00   .000E+00   .000E+00   .000E+00   .000E+00   .792E-09   .000E+00   .000E+00   .000E+00   .000E+00   .000E+00
      2.35  -.327E-05   .657E-11   .000E+00   .000E+00   .764E-09   .000E+00   .000E+00   .000E+00   .000E+00   .000E+00   .111E-08   .000E+00   .000E+00   .000E+00   .000E+00   .000E+00
      2.58  -.423E-05   .952E-11   .000E+00   .000E+00   .112E-08   .000E+00   .000E+00   .000E+00   .000E+00   .000E+00   .150E-08   .000E+00   .000E+00   .000E+00   .000E+00   .000E+00
      2.82  -.534E-05   .133E-10   .000E+00   .000E+00   .158E-08   .000E+00   .000E+00   .000E+00   .000E+00   .000E+00   .197E-08   .000E+00   .000E+00   .000E+00   .000E+00   .000E+00
      3.05  -.661E-05   .182E-10   .000E+00   .000E+00   .218E-08   .000E+00   .000E+00   .000E+00   .000E+00   .000E+00   .253E-08   .000E+00   .000E+00   .000E+00   .000E+00   .000E+00
      3.29  -.805E-05   .242E-10   .000E+00   .000E+00   .292E-08   .000E+00   .000E+00   .000E+00   .000E+00   .000E+00   .317E-08   .000E+00   .000E+00   .000E+00   .000E+00   .000E+00
      3.52  -.967E-05   .316E-10   .000E+00   .000E+00   .384E-08   .000E+00   .000E+00   .000E+00   .000E+00   .000E+00   .391E-08   .000E+00   .000E+00   .000E+00   .000E+00   .000E+00
      3.76  -.115E-04   .404E-10   .000E+00   .000E+00   .496E-08   .000E+00   .000E+00   .000E+00   .000E+00   .000E+00   .475E-08   .000E+00   .000E+00   .000E+00   .000E+00   .000E+00
      3.99  -.135E-04   .510E-10   .000E+00   .000E+00   .630E-08   .000E+00   .000E+00   .000E+00   .000E+00   .000E+00   .570E-08   .000E+00   .000E+00   .000E+00   .000E+00   .000E+00
      4.23  -.157E-04   .634E-10   .000E+00   .000E+00   .789E-08   .000E+00   .000E+00   .000E+00   .000E+00   .000E+00   .676E-08   .000E+00   .000E+00   .000E+00   .000E+00   .000E+00
      4.54  -.189E-04   .826E-10   .000E+00   .000E+00   .104E-07   .000E+00   .000E+00   .000E+00   .000E+00   .000E+00   .794E-08   .000E+00   .000E+00   .000E+00   .000E+00   .000E+00
      4.85  -.225E-04   .106E-09   .000E+00   .000E+00   .134E-07   .000E+00   .000E+00   .000E+00   .000E+00   .000E+00   .969E-08   .000E+00   .000E+00   .000E+00   .000E+00   .000E+00
      5.17  -.265E-04   .133E-09   .000E+00   .000E+00   .171E-07   .000E+00   .000E+00   .000E+00   .000E+00   .000E+00   .117E-07   .000E+00   .000E+00   .000E+00   .000E+00   .000E+00
      5.48  -.308E-04   .166E-09   .000E+00   .000E+00   .214E-07   .000E+00   .000E+00   .000E+00   .000E+00   .000E+00   .139E-07   .000E+00   .000E+00   .000E+00   .000E+00   .000E+00
      5.79  -.356E-04   .204E-09   .000E+00   .000E+00   .265E-07   .000E+00   .000E+00   .000E+00   .000E+00   .000E+00   .164E-07   .000E+00   .000E+00   .000E+00   .000E+00   .000E+00
      6.11  -.409E-04   .248E-09   .000E+00   .000E+00   .325E-07   .000E+00   .000E+00   .000E+00   .000E+00   .000E+00   .191E-07   .000E+00   .000E+00   .000E+00   .000E+00   .000E+00
      6.52  -.485E-04   .316E-09   .000E+00   .000E+00   .417E-07   .000E+00   .000E+00   .000E+00   .000E+00   .000E+00   .221E-07   .000E+00   .000E+00   .000E+00   .000E+00   .000E+00
      6.94  -.570E-04   .396E-09   .000E+00   .000E+00   .527E-07   .000E+00   .000E+00   .000E+00   .000E+00   .000E+00   .265E-07   .000E+00   .000E+00   .000E+00   .000E+00   .000E+00
      7.35  -.662E-04   .490E-09   .000E+00   .000E+00   .658E-07   .000E+00   .000E+00   .000E+00   .000E+00   .000E+00   .315E-07   .000E+00   .000E+00   .000E+00   .000E+00   .000E+00
      7.77  -.764E-04   .600E-09   .000E+00   .000E+00   .812E-07   .000E+00   .000E+00   .000E+00   .000E+00   .000E+00   .369E-07   .000E+00   .000E+00   .000E+00   .000E+00   .000E+00
      8.19  -.874E-04   .726E-09   .000E+00   .000E+00   .991E-07   .000E+00   .000E+00   .000E+00   .000E+00   .000E+00   .430E-07   .000E+00   .000E+00   .000E+00   .000E+00   .000E+00
      8.60  -.993E-04   .872E-09   .000E+00   .000E+00   .120E-06   .000E+00   .000E+00   .000E+00   .000E+00   .000E+00   .496E-07   .000E+00   .000E+00   .000E+00   .000E+00   .000E+00
      9.16  -.117E-03   .109E-08   .000E+00   .000E+00   .151E-06   .000E+00   .000E+00   .000E+00   .000E+00   .000E+00   .568E-07   .000E+00   .000E+00   .000E+00   .000E+00   .000E+00
      9.71  -.136E-03   .135E-08   .000E+00   .000E+00   .188E-06   .000E+00   .000E+00   .000E+00   .000E+00   .000E+00   .673E-07   .000E+00   .000E+00   .000E+00   .000E+00   .000E+00
     10.26  -.157E-03   .165E-08   .000E+00   .000E+00   .232E-06   .000E+00   .000E+00   .000E+00   .000E+00   .000E+00   .789E-07   .000E+00   .000E+00   .000E+00   .000E+00   .000E+00
     10.82  -.179E-03   .200E-08   .000E+00   .000E+00   .283E-06   .000E+00   .000E+00   .000E+00   .000E+00   .000E+00   .918E-07   .000E+00   .000E+00   .000E+00   .000E+00   .000E+00
     11.37  -.204E-03   .240E-08   .000E+00   .000E+00   .341E-06   .000E+00   .000E+00   .000E+00   .000E+00   .000E+00   .106E-06   .000E+00   .000E+00   .000E+00   .000E+00   .000E+00
     11.93  -.230E-03   .285E-08   .000E+00   .000E+00   .408E-06   .000E+00   .000E+00   .000E+00   .000E+00   .000E+00   .121E-06   .000E+00   .000E+00   .000E+00   .000E+00   .000E+00
     12.48  -.259E-03   .336E-08   .000E+00   .000E+00   .485E-06   .000E+00   .000E+00   .000E+00   .000E+00   .000E+00   .138E-06   .000E+00   .000E+00   .000E+00   .000E+00   .000E+00
     13.03  -.289E-03   .394E-08   .000E+00   .000E+00   .571E-06   .000E+00   .000E+00   .000E+00   .000E+00   .000E+00   .155E-06   .000E+00   .000E+00   .000E+00   .000E+00   .000E+00
     13.77  -.333E-03   .480E-08   .000E+00   .000E+00   .699E-06   .000E+00   .000E+00   .000E+00   .000E+00   .000E+00   .175E-06   .000E+00   .000E+00   .000E+00   .000E+00   .000E+00
     14.51  -.381E-03   .578E-08   .000E+00   .000E+00   .848E-06   .000E+00   .000E+00   .000E+00   .000E+00   .000E+00   .202E-06   .000E+00   .000E+00   .000E+00   .000E+00   .000E+00
     15.24  -.433E-03   .691E-08   .000E+00   .000E+00   .102E-05   .000E+00   .000E+00   .000E+00   .000E+00   .000E+00   .232E-06   .000E+00   .000E+00   .000E+00   .000E+00   .000E+00
     15.98  -.489E-03   .820E-08   .000E+00   .000E+00   .121E-05   .000E+00   .000E+00   .000E+00   .000E+00   .000E+00   .265E-06   .000E+00   .000E+00   .000E+00   .000E+00   .000E+00
     16.71  -.549E-03   .965E-08   .000E+00   .000E+00   .144E-05   .000E+00   .000E+00   .000E+00   .000E+00   .000E+00   .300E-06   .000E+00   .000E+00   .000E+00   .000E+00   .000E+00
     17.45  -.613E-03   .113E-07   .000E+00   .000E+00   .168E-05   .000E+00   .000E+00   .000E+00   .000E+00   .000E+00   .338E-06   .000E+00   .000E+00   .000E+00   .000E+00   .000E+00
     18.19  -.682E-03   .131E-07   .000E+00   .000E+00   .196E-05   .000E+00   .000E+00   .000E+00   .000E+00   .000E+00   .379E-06   .000E+00   .000E+00   .000E+00   .000E+00   .000E+00
     18.92  -.755E-03   .151E-07   .000E+00   .000E+00   .227E-05   .000E+00   .000E+00   .000E+00   .000E+00   .000E+00   .422E-06   .000E+00   .000E+00   .000E+00   .000E+00   .000E+00
     19.90  -.860E-03   .181E-07   .000E+00   .000E+00   .273E-05   .000E+00   .000E+00   .000E+00   .000E+00   .000E+00   .469E-06   .000E+00   .000E+00   .000E+00   .000E+00   .000E+00
     20.88  -.973E-03   .215E-07   .000E+00   .000E+00   .326E-05   .000E+00   .000E+00   .000E+00   .000E+00   .000E+00   .535E-06   .000E+00   .000E+00   .000E+00   .000E+00   .000E+00
     21.86  -.109E-02   .254E-07   .000E+00   .000E+00   .385E-05   .000E+00   .000E+00   .000E+00   .000E+00   .000E+00   .606E-06   .000E+00   .000E+00   .000E+00   .000E+00   .000E+00
     22.84  -.123E-02   .297E-07   .000E+00   .000E+00   .452E-05   .000E+00   .000E+00   .000E+00   .000E+00   .000E+00   .682E-06   .000E+00   .000E+00   .000E+00   .000E+00   .000E+00
     23.82  -.136E-02   .346E-07   .000E+00   .000E+00   .527E-05   .000E+00   .000E+00   .000E+00   .000E+00   .000E+00   .764E-06   .000E+00   .000E+00   .000E+00   .000E+00   .000E+00
     25.12  -.157E-02   .418E-07   .000E+00   .000E+00   .637E-05   .000E+00   .000E+00   .000E+00   .000E+00   .000E+00   .852E-06   .000E+00   .000E+00   .000E+00   .000E+00   .000E+00
     26.42  -.178E-02   .501E-07   .000E+00   .000E+00   .764E-05   .000E+00   .000E+00   .000E+00   .000E+00   .000E+00   .976E-06   .000E+00   .000E+00   .000E+00   .000E+00   .000E+00
     27.72  -.202E-02   .595E-07   .000E+00   .000E+00   .909E-05   .000E+00   .000E+00   .000E+00   .000E+00   .000E+00   .111E-05   .000E+00   .000E+00   .000E+00   .000E+00   .000E+00
     29.02  -.227E-02   .702E-07   .000E+00   .000E+00   .107E-04   .000E+00   .000E+00   .000E+00   .000E+00   .000E+00   .126E-05   .000E+00   .000E+00   .000E+00   .000E+00   .000E+00
     30.33  -.255E-02   .822E-07   .000E+00   .000E+00   .126E-04   .000E+00   .000E+00   .000E+00   .000E+00   .000E+00   .141E-05   .000E+00   .000E+00   .000E+00   .000E+00   .000E+00
     31.63  -.284E-02   .956E-07   .000E+00   .000E+00   .146E-04   .000E+00   .000E+00   .000E+00   .000E+00   .000E+00   .158E-05   .000E+00   .000E+00   .000E+00   .000E+00   .000E+00
     32.93  -.315E-02   .111E-06   .000E+00   .000E+00   .169E-04   .000E+00   .000E+00   .000E+00   .000E+00   .000E+00   .175E-05   .000E+00   .000E+00   .000E+00   .000E+00   .000E+00
     34.66  -.360E-02   .133E-06   .000E+00   .000E+00   .202E-04   .000E+00   .000E+00   .000E+00   .000E+00   .000E+00   .194E-05   .000E+00   .000E+00   .000E+00   .000E+00   .000E+00
     36.39  -.408E-02   .158E-06   .000E+00   .000E+00   .241E-04   .000E+00   .000E+00   .000E+00   .000E+00   .000E+00   .220E-05   .000E+00   .000E+00   .000E+00   .000E+00   .000E+00
     38.12  -.460E-02   .187E-06   .000E+00   .000E+00   .284E-04   .000E+00   .000E+00   .000E+00   .000E+00   .000E+00   .249E-05   .000E+00   .000E+00   .000E+00   .000E+00   .000E+00
     39.85  -.517E-02   .219E-06   .000E+00   .000E+00   .332E-04   .000E+00   .000E+00   .000E+00   .000E+00   .000E+00   .279E-05   .000E+00   .000E+00   .000E+00   .000E+00   .000E+00
     42.16  -.598E-02   .268E-06   .000E+00   .000E+00   .404E-04   .000E+00   .000E+00   .000E+00   .000E+00   .000E+00   .311E-05   .000E+00   .000E+00   .000E+00   .000E+00   .000E+00
     44.46  -.687E-02   .324E-06   .000E+00   .000E+00   .486E-04   .000E+00   .000E+00   .000E+00   .000E+00   .000E+00   .357E-05   .000E+00   .000E+00   .000E+00   .000E+00   .000E+00
     46.77  -.784E-02   .389E-06   .000E+00   .000E+00   .580E-04   .000E+00   .000E+00   .000E+00   .000E+00   .000E+00   .407E-05   .000E+00   .000E+00   .000E+00   .000E+00   .000E+00
     49.07  -.889E-02   .462E-06   .000E+00   .000E+00   .686E-04   .000E+00   .000E+00   .000E+00   .000E+00   .000E+00   .460E-05   .000E+00   .000E+00   .000E+00   .000E+00   .000E+00
     51.38  -.100E-01   .546E-06   .000E+00   .000E+00   .805E-04   .000E+00   .000E+00   .000E+00   .000E+00   .000E+00   .517E-05   .000E+00   .000E+00   .000E+00   .000E+00   .000E+00
     53.68  -.112E-01   .640E-06   .000E+00   .000E+00   .938E-04   .000E+00   .000E+00   .000E+00   .000E+00   .000E+00   .578E-05   .000E+00   .000E+00   .000E+00   .000E+00   .000E+00
     55.99  -.125E-01   .746E-06   .000E+00   .000E+00   .109E-03   .000E+00   .000E+00   .000E+00   .000E+00   .000E+00   .642E-05   .000E+00   .000E+00   .000E+00   .000E+00   .000E+00
     58.30  -.139E-01   .864E-06   .000E+00   .000E+00   .125E-03   .000E+00   .000E+00   .000E+00   .000E+00   .000E+00   .709E-05   .000E+00   .000E+00   .000E+00   .000E+00   .000E+00
     60.60  -.154E-01   .995E-06   .000E+00   .000E+00   .143E-03   .000E+00   .000E+00   .000E+00   .000E+00   .000E+00   .780E-05   .000E+00   .000E+00   .000E+00   .000E+00   .000E+00
     62.91  -.170E-01   .114E-05   .000E+00   .000E+00   .163E-03   .000E+00   .000E+00   .000E+00   .000E+00   .000E+00   .855E-05   .000E+00   .000E+00   .000E+00   .000E+00   .000E+00
     65.98  -.193E-01   .135E-05   .000E+00   .000E+00   .191E-03   .000E+00   .000E+00   .000E+00   .000E+00   .000E+00   .934E-05   .000E+00   .000E+00   .000E+00   .000E+00   .000E+00
     69.05  -.218E-01   .160E-05   .000E+00   .000E+00   .223E-03   .000E+00   .000E+00   .000E+00   .000E+00   .000E+00   .104E-04   .000E+00   .000E+00   .000E+00   .000E+00   .000E+00
     72.12  -.244E-01   .187E-05   .000E+00   .000E+00   .259E-03   .000E+00   .000E+00   .000E+00   .000E+00   .000E+00   .116E-04   .000E+00   .000E+00   .000E+00   .000E+00   .000E+00
     75.19  -.273E-01   .218E-05   .000E+00   .000E+00   .299E-03   .000E+00   .000E+00   .000E+00   .000E+00   .000E+00   .129E-04   .000E+00   .000E+00   .000E+00   .000E+00   .000E+00
     78.26  -.303E-01   .252E-05   .000E+00   .000E+00   .342E-03   .000E+00   .000E+00   .000E+00   .000E+00   .000E+00   .142E-04   .000E+00   .000E+00   .000E+00   .000E+00   .000E+00
     81.33  -.336E-01   .290E-05   .000E+00   .000E+00   .390E-03   .000E+00   .000E+00   .000E+00   .000E+00   .000E+00   .155E-04   .000E+00   .000E+00   .000E+00   .000E+00   .000E+00
     84.40  -.370E-01   .332E-05   .000E+00   .000E+00   .442E-03   .000E+00   .000E+00   .000E+00   .000E+00   .000E+00   .169E-04   .000E+00   .000E+00   .000E+00   .000E+00   .000E+00
     88.48  -.420E-01   .394E-05   .000E+00   .000E+00   .517E-03   .000E+00   .000E+00   .000E+00   .000E+00   .000E+00   .184E-04   .000E+00   .000E+00   .000E+00   .000E+00   .000E+00
     92.55  -.473E-01   .463E-05   .000E+00   .000E+00   .601E-03   .000E+00   .000E+00   .000E+00   .000E+00   .000E+00   .205E-04   .000E+00   .000E+00   .000E+00   .000E+00   .000E+00
     96.62  -.530E-01   .542E-05   .000E+00   .000E+00   .693E-03   .000E+00   .000E+00   .000E+00   .000E+00   .000E+00   .227E-04   .000E+00   .000E+00   .000E+00   .000E+00   .000E+00
    100.70  -.592E-01   .630E-05   .000E+00   .000E+00   .795E-03   .000E+00   .000E+00   .000E+00   .000E+00   .000E+00   .251E-04   .000E+00   .000E+00   .000E+00   .000E+00   .000E+00
    104.77  -.658E-01   .729E-05   .000E+00   .000E+00   .907E-03   .000E+00   .000E+00   .000E+00   .000E+00   .000E+00   .275E-04   .000E+00   .000E+00   .000E+00   .000E+00   .000E+00
    108.85  -.728E-01   .838E-05   .000E+00   .000E+00   .103E-02   .000E+00   .000E+00   .000E+00   .000E+00   .000E+00   .300E-04   .000E+00   .000E+00   .000E+00   .000E+00   .000E+00
    112.92  -.804E-01   .960E-05   .000E+00   .000E+00   .116E-02   .000E+00   .000E+00   .000E+00   .000E+00   .000E+00   .327E-04   .000E+00   .000E+00   .000E+00   .000E+00   .000E+00
    118.34  -.911E-01   .114E-04   .000E+00   .000E+00   .136E-02   .000E+00   .000E+00   .000E+00   .000E+00   .000E+00   .355E-04   .000E+00   .000E+00   .000E+00   .000E+00   .000E+00
    123.76  -.103E+00   .134E-04   .000E+00   .000E+00   .157E-02   .000E+00   .000E+00   .000E+00   .000E+00   .000E+00   .394E-04   .000E+00   .000E+00   .000E+00   .000E+00   .000E+00
    129.18  -.115E+00   .157E-04   .000E+00   .000E+00   .180E-02   .000E+00   .000E+00   .000E+00   .000E+00   .000E+00   .434E-04   .000E+00   .000E+00   .000E+00   .000E+00   .000E+00
    134.60  -.129E+00   .182E-04   .000E+00   .000E+00   .206E-02   .000E+00   .000E+00   .000E+00   .000E+00   .000E+00   .477E-04   .000E+00   .000E+00   .000E+00   .000E+00   .000E+00
    140.02  -.143E+00   .211E-04   .000E+00   .000E+00   .235E-02   .000E+00   .000E+00   .000E+00   .000E+00   .000E+00   .522E-04   .000E+00   .000E+00   .000E+00   .000E+00   .000E+00
    145.44  -.158E+00   .242E-04   .000E+00   .000E+00   .265E-02   .000E+00   .000E+00   .000E+00   .000E+00   .000E+00   .569E-04   .000E+00   .000E+00   .000E+00   .000E+00   .000E+00
    150.86  -.175E+00   .277E-04   .000E+00   .000E+00   .299E-02   .000E+00   .000E+00   .000E+00   .000E+00   .000E+00   .618E-04   .000E+00   .000E+00   .000E+00   .000E+00   .000E+00
    158.07  -.198E+00   .328E-04   .000E+00   .000E+00   .347E-02   .000E+00   .000E+00   .000E+00   .000E+00   .000E+00   .669E-04   .000E+00   .000E+00   .000E+00   .000E+00   .000E+00
    165.27  -.223E+00   .387E-04   .000E+00   .000E+00   .401E-02   .000E+00   .000E+00   .000E+00   .000E+00   .000E+00   .740E-04   .000E+00   .000E+00   .000E+00   .000E+00   .000E+00
    172.48  -.251E+00   .452E-04   .000E+00   .000E+00   .459E-02   .000E+00   .000E+00   .000E+00   .000E+00   .000E+00   .815E-04   .000E+00   .000E+00   .000E+00   .000E+00   .000E+00
    179.68  -.280E+00   .525E-04   .000E+00   .000E+00   .524E-02   .000E+00   .000E+00   .000E+00   .000E+00   .000E+00   .893E-04   .000E+00   .000E+00   .000E+00   .000E+00   .000E+00
