


                               Node(320)                                           Node(422)                                           Node(519)

     time        hNew    theta    Temp       Conc       Sorb         hNew    theta    Temp       Conc       Sorb         hNew    theta    Temp       Conc       Sorb    
       .000    -35.562   .3327   20.000   .000E+00   .000E+00      -12.165   .4005   20.000   .000E+00   .000E+00      -22.797   .3669   20.000   .000E+00   .000E+00
       .010    -18.847   .3790   20.000   .133E-02   .000E+00      -11.968   .4012   20.000   .147E-29   .000E+00      -22.799   .3669   20.000   .000E+00   .000E+00
       .017    -10.782   .4049   20.000   .462E-02   .000E+00      -11.551   .4025   20.000   .196E-25   .000E+00      -22.801   .3669   20.000   .000E+00   .000E+00
       .022     -7.519   .4149   20.000   .828E-02   .000E+00      -11.023   .4041   20.000   .460E-24   .000E+00      -22.802   .3669   20.000   .000E+00   .000E+00
       .025     -5.959   .4192   20.000   .112E-01   .000E+00      -10.530   .4057   20.000   .353E-23   .000E+00      -22.803   .3669   20.000   .000E+00   .000E+00
       .029     -4.992   .4217   20.000   .142E-01   .000E+00       -9.916   .4076   20.000   .355E-22   .000E+00      -22.803   .3669   20.000   .000E+00   .000E+00
       .032     -4.311   .4233   20.000   .173E-01   .000E+00       -9.189   .4099   20.000   .309E-21   .000E+00      -22.803   .3669   20.000   .000E+00   .000E+00
       .036     -3.773   .4245   20.000   .203E-01   .000E+00       -8.357   .4124   20.000   .214E-20   .000E+00      -22.803   .3669   20.000   .000E+00   .000E+00
       .039     -3.356   .4254   20.000   .234E-01   .000E+00       -7.457   .4150   20.000   .122E-19   .000E+00      -22.801   .3669   20.000   .000E+00   .000E+00
       .042     -3.012   .4261   20.000   .265E-01   .000E+00       -6.457   .4178   20.000   .606E-19   .000E+00      -22.798   .3669   20.000   .000E+00   .000E+00
       .046     -2.705   .4267   20.000   .296E-01   .000E+00       -5.577   .4202   20.000   .238E-18   .000E+00      -22.793   .3669   20.000   .000E+00   .000E+00
       .049     -2.462   .4272   20.000   .328E-01   .000E+00       -4.796   .4222   20.000   .796E-18   .000E+00      -22.787   .3669   20.000   .000E+00   .000E+00
       .053     -2.250   .4275   20.000   .359E-01   .000E+00       -4.070   .4239   20.000   .241E-17   .000E+00      -22.778   .3670   20.000   .000E+00   .000E+00
       .056     -2.021   .4279   20.000   .391E-01   .000E+00       -3.396   .4253   20.000   .676E-17   .000E+00      -22.766   .3670   20.000   .000E+00   .000E+00
       .060     -1.815   .4282   20.000   .423E-01   .000E+00       -2.761   .4266   20.000   .178E-16   .000E+00      -22.752   .3671   20.000   .000E+00   .000E+00
       .063     -1.622   .4285   20.000   .456E-01   .000E+00       -2.187   .4276   20.000   .437E-16   .000E+00      -22.733   .3671   20.000   .000E+00   .000E+00
       .067     -1.453   .4287   20.000   .489E-01   .000E+00       -1.649   .4285   20.000   .101E-15   .000E+00      -22.711   .3672   20.000   .000E+00   .000E+00
       .070     -1.324   .4289   20.000   .521E-01   .000E+00       -1.159   .4291   20.000   .220E-15   .000E+00      -22.685   .3673   20.000   .000E+00   .000E+00
       .073     -1.214   .4290   20.000   .554E-01   .000E+00        -.673   .4296   20.000   .458E-15   .000E+00      -22.654   .3674   20.000   .000E+00   .000E+00
       .077     -1.116   .4292   20.000   .586E-01   .000E+00        -.195   .4299   20.000   .919E-15   .000E+00      -22.619   .3675   20.000   .000E+00   .000E+00
       .080     -1.026   .4293   20.000   .618E-01   .000E+00         .278   .4300   20.000   .178E-14   .000E+00      -22.578   .3676   20.000   .000E+00   .000E+00
       .084      -.947   .4293   20.000   .649E-01   .000E+00         .717   .4300   20.000   .331E-14   .000E+00      -22.531   .3677   20.000   .000E+00   .000E+00
       .087      -.875   .4294   20.000   .681E-01   .000E+00        1.122   .4300   20.000   .591E-14   .000E+00      -22.479   .3679   20.000   .000E+00   .000E+00
       .091      -.810   .4295   20.000   .712E-01   .000E+00        1.509   .4300   20.000   .103E-13   .000E+00      -22.421   .3681   20.000   .000E+00   .000E+00
       .094      -.748   .4295   20.000   .742E-01   .000E+00        1.879   .4300   20.000   .174E-13   .000E+00      -22.357   .3683   20.000   .000E+00   .000E+00
       .097      -.688   .4296   20.000   .773E-01   .000E+00        2.208   .4300   20.000   .286E-13   .000E+00      -22.286   .3685   20.000   .000E+00   .000E+00
       .101      -.638   .4296   20.000   .803E-01   .000E+00        2.510   .4300   20.000   .457E-13   .000E+00      -22.210   .3687   20.000   .000E+00   .000E+00
       .105      -.566   .4297   20.000   .842E-01   .000E+00        2.871   .4300   20.000   .815E-13   .000E+00      -22.101   .3691   20.000   .000E+00   .000E+00
       .111      -.479   .4298   20.000   .892E-01   .000E+00        3.291   .4300   20.000   .165E-12   .000E+00      -21.943   .3695   20.000   .000E+00   .000E+00
       .117      -.408   .4298   20.000   .941E-01   .000E+00        3.690   .4300   20.000   .315E-12   .000E+00      -21.768   .3701   20.000   .000E+00   .000E+00
       .123      -.343   .4299   20.000   .989E-01   .000E+00        4.054   .4300   20.000   .574E-12   .000E+00      -21.578   .3707   20.000   .000E+00   .000E+00
       .128      -.273   .4299   20.000   .104E+00   .000E+00        4.395   .4300   20.000   .100E-11   .000E+00      -21.372   .3713   20.000   .000E+00   .000E+00
       .134      -.213   .4299   20.000   .108E+00   .000E+00        4.713   .4300   20.000   .169E-11   .000E+00      -21.154   .3720   20.000   .000E+00   .000E+00
       .142      -.144   .4300   20.000   .114E+00   .000E+00        5.077   .4300   20.000   .318E-11   .000E+00      -20.852   .3729   20.000   .000E+00   .000E+00
       .149      -.085   .4300   20.000   .120E+00   .000E+00        5.465   .4300   20.000   .568E-11   .000E+00      -20.535   .3739   20.000   .000E+00   .000E+00
       .157      -.008   .4300   20.000   .126E+00   .000E+00        5.817   .4300   20.000   .973E-11   .000E+00      -20.206   .3749   20.000   .000E+00   .000E+00
       .164       .063   .4300   20.000   .131E+00   .000E+00        6.136   .4300   20.000   .161E-10   .000E+00      -19.866   .3759   20.000   .282E-29   .000E+00
       .172       .127   .4300   20.000   .137E+00   .000E+00        6.442   .4300   20.000   .257E-10   .000E+00      -19.517   .3770   20.000   .124E-28   .000E+00
       .179       .182   .4300   20.000   .142E+00   .000E+00        6.724   .4300   20.000   .399E-10   .000E+00      -19.161   .3781   20.000   .429E-28   .000E+00
       .189       .248   .4300   20.000   .149E+00   .000E+00        7.078   .4300   20.000   .684E-10   .000E+00      -18.696   .3795   20.000   .202E-27   .000E+00
       .199       .309   .4300   20.000   .155E+00   .000E+00        7.393   .4300   20.000   .113E-09   .000E+00      -18.236   .3810   20.000   .827E-27   .000E+00
       .209       .364   .4300   20.000   .162E+00   .000E+00        7.681   .4300   20.000   .179E-09   .000E+00      -17.775   .3825   20.000   .305E-26   .000E+00
       .219       .411   .4300   20.000   .168E+00   .000E+00        7.946   .4300   20.000   .276E-09   .000E+00      -17.319   .3839   20.000   .103E-25   .000E+00
       .228       .460   .4300   20.000   .174E+00   .000E+00        8.215   .4300   20.000   .415E-09   .000E+00      -16.873   .3854   20.000   .322E-25   .000E+00
       .238       .506   .4300   20.000   .179E+00   .000E+00        8.463   .4300   20.000   .608E-09   .000E+00      -16.433   .3868   20.000   .938E-25   .000E+00
       .248       .547   .4300   20.000   .185E+00   .000E+00        8.690   .4300   20.000   .872E-09   .000E+00      -16.005   .3881   20.000   .256E-24   .000E+00
       .261       .600   .4300   20.000   .192E+00   .000E+00        8.961   .4300   20.000   .136E-08   .000E+00      -15.471   .3899   20.000   .906E-24   .000E+00
       .273       .650   .4300   20.000   .199E+00   .000E+00        9.225   .4300   20.000   .205E-08   .000E+00      -14.960   .3915   20.000   .287E-23   .000E+00
       .286       .696   .4300   20.000   .206E+00   .000E+00        9.467   .4300   20.000   .301E-08   .000E+00      -14.473   .3931   20.000   .832E-23   .000E+00
       .299       .738   .4300   20.000   .212E+00   .000E+00        9.690   .4300   20.000   .433E-08   .000E+00      -14.006   .3946   20.000   .224E-22   .000E+00
       .315       .788   .4300   20.000   .220E+00   .000E+00        9.957   .4300   20.000   .673E-08   .000E+00      -13.433   .3964   20.000   .777E-22   .000E+00
       .332       .831   .4300   20.000   .228E+00   .000E+00       10.201   .4300   20.000   .101E-07   .000E+00      -12.893   .3982   20.000   .242E-21   .000E+00
       .349       .871   .4300   20.000   .236E+00   .000E+00       10.436   .4300   20.000   .149E-07   .000E+00      -12.387   .3998   20.000   .691E-21   .000E+00
       .365       .908   .4300   20.000   .243E+00   .000E+00       10.650   .4300   20.000   .213E-07   .000E+00      -11.900   .4014   20.000   .185E-20   .000E+00
       .382       .942   .4300   20.000   .250E+00   .000E+00       10.852   .4300   20.000   .298E-07   .000E+00      -11.447   .4028   20.000   .467E-20   .000E+00
       .398       .973   .4300   20.000   .257E+00   .000E+00       11.037   .4300   20.000   .410E-07   .000E+00      -11.025   .4041   20.000   .112E-19   .000E+00
       .415      1.006   .4300   20.000   .263E+00   .000E+00       11.216   .4300   20.000   .555E-07   .000E+00      -10.630   .4054   20.000   .258E-19   .000E+00
       .431      1.036   .4300   20.000   .270E+00   .000E+00       11.386   .4300   20.000   .738E-07   .000E+00      -10.266   .4065   20.000   .567E-19   .000E+00
       .453      1.073   .4300   20.000   .278E+00   .000E+00       11.590   .4300   20.000   .105E-06   .000E+00       -9.836   .4079   20.000   .152E-18   .000E+00
       .474      1.107   .4300   20.000   .286E+00   .000E+00       11.777   .4300   20.000   .146E-06   .000E+00       -9.445   .4091   20.000   .381E-18   .000E+00
       .496      1.138   .4300   20.000   .293E+00   .000E+00       11.950   .4300   20.000   .199E-06   .000E+00       -9.090   .4102   20.000   .898E-18   .000E+00
       .518      1.166   .4300   20.000   .300E+00   .000E+00       12.111   .4300   20.000   .266E-06   .000E+00       -8.764   .4111   20.000   .201E-17   .000E+00
       .539      1.193   .4300   20.000   .307E+00   .000E+00       12.265   .4300   20.000   .352E-06   .000E+00       -8.464   .4120   20.000   .429E-17   .000E+00
       .561      1.217   .4300   20.000   .314E+00   .000E+00       12.406   .4300   20.000   .459E-06   .000E+00       -8.190   .4129   20.000   .882E-17   .000E+00
       .582      1.240   .4300   20.000   .321E+00   .000E+00       12.535   .4300   20.000   .592E-06   .000E+00       -7.937   .4136   20.000   .175E-16   .000E+00
       .604      1.261   .4300   20.000   .327E+00   .000E+00       12.657   .4300   20.000   .753E-06   .000E+00       -7.704   .4143   20.000   .335E-16   .000E+00
       .625      1.280   .4300   20.000   .333E+00   .000E+00       12.769   .4300   20.000   .949E-06   .000E+00       -7.486   .4150   20.000   .624E-16   .000E+00
       .647      1.298   .4300   20.000   .339E+00   .000E+00       12.876   .4300   20.000   .118E-05   .000E+00       -7.287   .4155   20.000   .113E-15   .000E+00
       .668      1.313   .4300   20.000   .345E+00   .000E+00       12.975   .4300   20.000   .146E-05   .000E+00       -7.105   .4160   20.000   .201E-15   .000E+00
       .690      1.329   .4300   20.000   .351E+00   .000E+00       13.064   .4300   20.000   .180E-05   .000E+00       -6.937   .4165   20.000   .349E-15   .000E+00
       .718      1.348   .4300   20.000   .358E+00   .000E+00       13.171   .4300   20.000   .231E-05   .000E+00       -6.740   .4170   20.000   .697E-15   .000E+00
       .746      1.366   .4300   20.000   .365E+00   .000E+00       13.270   .4300   20.000   .294E-05   .000E+00       -6.561   .4175   20.000   .135E-14   .000E+00
       .773      1.382   .4300   20.000   .372E+00   .000E+00       13.361   .4300   20.000   .369E-05   .000E+00       -6.403   .4180   20.000   .254E-14   .000E+00
       .801      1.396   .4300   20.000   .378E+00   .000E+00       13.445   .4300   20.000   .460E-05   .000E+00       -6.263   .4184   20.000   .465E-14   .000E+00
       .829      1.410   .4300   20.000   .384E+00   .000E+00       13.524   .4300   20.000   .567E-05   .000E+00       -6.130   .4187   20.000   .828E-14   .000E+00
       .857      1.423   .4300   20.000   .391E+00   .000E+00       13.598   .4300   20.000   .694E-05   .000E+00       -6.008   .4191   20.000   .144E-13   .000E+00
       .885      1.435   .4300   20.000   .397E+00   .000E+00       13.666   .4300   20.000   .842E-05   .000E+00       -5.894   .4194   20.000   .245E-13   .000E+00
       .913      1.447   .4300   20.000   .402E+00   .000E+00       13.730   .4300   20.000   .101E-04   .000E+00       -5.783   .4197   20.000   .409E-13   .000E+00
       .941      1.457   .4300   20.000   .408E+00   .000E+00       13.792   .4300   20.000   .121E-04   .000E+00       -5.682   .4199   20.000   .670E-13   .000E+00
       .968      1.467   .4300   20.000   .414E+00   .000E+00       13.852   .4300   20.000   .144E-04   .000E+00       -5.588   .4202   20.000   .108E-12   .000E+00
       .996      1.476   .4300   20.000   .419E+00   .000E+00       13.908   .4300   20.000   .171E-04   .000E+00       -5.501   .4204   20.000   .171E-12   .000E+00
      1.024      1.485   .4300   20.000   .424E+00   .000E+00       13.960   .4300   20.000   .200E-04   .000E+00       -5.420   .4206   20.000   .266E-12   .000E+00
      1.052      1.495   .4300   20.000   .429E+00   .000E+00       14.009   .4300   20.000   .234E-04   .000E+00       -5.343   .4208   20.000   .408E-12   .000E+00
      1.080      1.504   .4300   20.000   .434E+00   .000E+00       14.054   .4300   20.000   .273E-04   .000E+00       -5.274   .4210   20.000   .618E-12   .000E+00
      1.108      1.512   .4300   20.000   .439E+00   .000E+00       14.097   .4300   20.000   .316E-04   .000E+00       -5.210   .4211   20.000   .923E-12   .000E+00
      1.135      1.520   .4300   20.000   .444E+00   .000E+00       14.137   .4300   20.000   .365E-04   .000E+00       -5.149   .4213   20.000   .136E-11   .000E+00
      1.163      1.527   .4300   20.000   .449E+00   .000E+00       14.175   .4300   20.000   .419E-04   .000E+00       -5.092   .4214   20.000   .198E-11   .000E+00
      1.191      1.534   .4300   20.000   .453E+00   .000E+00       14.210   .4300   20.000   .479E-04   .000E+00       -5.039   .4216   20.000   .285E-11   .000E+00
      1.219      1.541   .4300   20.000   .458E+00   .000E+00       14.244   .4300   20.000   .547E-04   .000E+00       -4.990   .4217   20.000   .406E-11   .000E+00
      1.247      1.547   .4300   20.000   .462E+00   .000E+00       14.277   .4300   20.000   .621E-04   .000E+00       -4.944   .4218   20.000   .573E-11   .000E+00
      1.275      1.553   .4300   20.000   .467E+00   .000E+00       14.307   .4300   20.000   .703E-04   .000E+00       -4.902   .4219   20.000   .799E-11   .000E+00
      1.303      1.559   .4300   20.000   .471E+00   .000E+00       14.335   .4300   20.000   .793E-04   .000E+00       -4.862   .4220   20.000   .111E-10   .000E+00
      1.330      1.564   .4300   20.000   .475E+00   .000E+00       14.362   .4300   20.000   .892E-04   .000E+00       -4.824   .4221   20.000   .152E-10   .000E+00
      1.367      1.571   .4300   20.000   .481E+00   .000E+00       14.396   .4300   20.000   .104E-03   .000E+00       -4.778   .4222   20.000   .227E-10   .000E+00
      1.403      1.577   .4300   20.000   .486E+00   .000E+00       14.427   .4300   20.000   .120E-03   .000E+00       -4.737   .4223   20.000   .335E-10   .000E+00
      1.440      1.583   .4300   20.000   .491E+00   .000E+00       14.457   .4300   20.000   .138E-03   .000E+00       -4.696   .4224   20.000   .488E-10   .000E+00
      1.477      1.588   .4300   20.000   .496E+00   .000E+00       14.485   .4300   20.000   .158E-03   .000E+00       -4.657   .4225   20.000   .703E-10   .000E+00
      1.513      1.593   .4300   20.000   .501E+00   .000E+00       14.512   .4300   20.000   .181E-03   .000E+00       -4.621   .4226   20.000   .100E-09   .000E+00
      1.550      1.599   .4300   20.000   .506E+00   .000E+00       14.537   .4300   20.000   .205E-03   .000E+00       -4.585   .4227   20.000   .141E-09   .000E+00
      1.586      1.603   .4300   20.000   .510E+00   .000E+00       14.562   .4300   20.000   .233E-03   .000E+00       -4.552   .4228   20.000   .196E-09   .000E+00
      1.623      1.608   .4300   20.000   .515E+00   .000E+00       14.587   .4300   20.000   .262E-03   .000E+00       -4.520   .4228   20.000   .270E-09   .000E+00
      1.659      1.613   .4300   20.000   .519E+00   .000E+00       14.610   .4300   20.000   .295E-03   .000E+00       -4.489   .4229   20.000   .370E-09   .000E+00
      1.706      1.619   .4300   20.000   .525E+00   .000E+00       14.639   .4300   20.000   .342E-03   .000E+00       -4.453   .4230   20.000   .544E-09   .000E+00
      1.753      1.624   .4300   20.000   .530E+00   .000E+00       14.665   .4300   20.000   .393E-03   .000E+00       -4.418   .4231   20.000   .791E-09   .000E+00
      1.799      1.629   .4300   20.000   .536E+00   .000E+00       14.690   .4300   20.000   .451E-03   .000E+00       -4.386   .4231   20.000   .113E-08   .000E+00
      1.846      1.634   .4300   20.000   .541E+00   .000E+00       14.713   .4300   20.000   .514E-03   .000E+00       -4.355   .4232   20.000   .161E-08   .000E+00
      1.893      1.639   .4300   20.000   .546E+00   .000E+00       14.737   .4300   20.000   .584E-03   .000E+00       -4.326   .4233   20.000   .225E-08   .000E+00
      1.940      1.643   .4300   20.000   .551E+00   .000E+00       14.759   .4300   20.000   .661E-03   .000E+00       -4.300   .4233   20.000   .311E-08   .000E+00
      1.986      1.647   .4300   20.000   .556E+00   .000E+00       14.780   .4300   20.000   .745E-03   .000E+00       -4.275   .4234   20.000   .426E-08   .000E+00
      2.050      1.653   .4300   20.000   .562E+00   .000E+00       14.807   .4300   20.000   .874E-03   .000E+00       -4.243   .4235   20.000   .649E-08   .000E+00
      2.115      1.658   .4300   20.000   .569E+00   .000E+00       14.832   .4300   20.000   .102E-02   .000E+00       -4.214   .4235   20.000   .969E-08   .000E+00
      2.179      1.662   .4300   20.000   .575E+00   .000E+00       14.855   .4300   20.000   .118E-02   .000E+00       -4.186   .4236   20.000   .142E-07   .000E+00
      2.243      1.666   .4300   20.000   .581E+00   .000E+00       14.876   .4300   20.000   .136E-02   .000E+00       -4.161   .4237   20.000   .206E-07   .000E+00
      2.307      1.670   .4300   20.000   .587E+00   .000E+00       14.896   .4300   20.000   .155E-02   .000E+00       -4.138   .4237   20.000   .294E-07   .000E+00
      2.404      1.675   .4300   20.000   .595E+00   .000E+00       14.922   .4300   20.000   .188E-02   .000E+00       -4.106   .4238   20.000   .489E-07   .000E+00
      2.500      1.679   .4300   20.000   .603E+00   .000E+00       14.946   .4300   20.000   .226E-02   .000E+00       -4.078   .4238   20.000   .791E-07   .000E+00
      2.581      1.681   .4300   20.000   .610E+00   .000E+00       14.964   .4300   20.000   .262E-02   .000E+00       -4.057   .4239   20.000   .116E-06   .000E+00
